# Distance (km), Depth (m)
1.328307185292203485e+00 -8.443000000000000682e+01
1.992540252644431575e+00 -9.142400000000000659e+01
3.321162600112103291e+00 -1.088559999999999945e+02
4.649989669267199588e+00 -1.303919999999999959e+02
7.689449001328966915e+00 -1.758969999999999914e+02
9.018586009532157277e+00 -2.115660000000000025e+02
1.034791506304719633e+01 -2.597549999999999955e+02
1.167743235639019872e+01 -3.084230000000000018e+02
1.300713418344341221e+01 -3.303299999999999841e+02
1.367205316532857751e+01 -3.534100000000000250e+02
1.500202505348138970e+01 -4.108260000000000218e+02
1.633217262404116354e+01 -4.357850000000000250e+02
1.766249249422006073e+01 -4.433990000000000009e+02
