# Distance (km), Depth (m)
1.007331370294991757e+00 -9.156699999999999307e+01
2.352207264898225958e+00 -1.087729999999999961e+02
4.371381605158489947e+00 -1.782479999999999905e+02
5.721308821058954663e+00 -2.311399999999999864e+02
6.733037398877200985e+00 -2.735919999999999845e+02
8.086588148934197307e+00 -3.226000000000000227e+02
9.100066513586398287e+00 -3.587119999999999891e+02
9.442494419951060536e+00 -3.766429999999999723e+02
1.045710593791005749e+01 -3.975930000000000177e+02
1.147225941090152901e+01 -4.135899999999999750e+02
1.181641839988768083e+01 -4.211859999999999786e+02
1.283265912455414082e+01 -4.216850000000000023e+02
1.419525321172372401e+01 -4.226530000000000200e+02
1.555999349391868236e+01 -4.023809999999999718e+02
1.692683312015648767e+01 -3.949950000000000045e+02
1.794664195410197749e+01 -3.820869999999999891e+02
1.829572652428043966e+01 -3.763419999999999845e+02
1.931650073820688363e+01 -3.750980000000000132e+02
