# Distance (km), Depth (m)
-9.385396559200103184e-01 -5.872299999999999898e+01
0.000000000000000000e+00 -5.357900000000000063e+01
1.407966826705262520e+00 -7.456000000000000227e+01
2.816119731098183365e+00 -1.087300000000000040e+02
4.693941189538463732e+00 -1.668849999999999909e+02
6.102516661727634073e+00 -1.996359999999999957e+02
7.511268409516844713e+00 -2.195879999999999939e+02
8.920193626174864221e+00 -2.470279999999999916e+02
1.032928956390719577e+01 -2.669309999999999832e+02
1.220834507169661265e+01 -2.969080000000000155e+02
1.361782899243610245e+01 -3.238129999999999882e+02
1.502747488129637077e+01 -3.531940000000000168e+02
1.690725035354637384e+01 -3.876209999999999809e+02
